% Module: Scope, ID: c0p1t6p1cfm0
% Device: DEV4810
% Time: 2026/03/10 11:27:31
% 波形 通道1, /dev4810/scopes/0/wave.0
% 时间 (s); 波形 通道1  波形 (V)
-0.5352587; 0.485969334841
-0.5351904333333334; 0.486067771912
-0.5351221666666667; 0.486199021339
-0.5350539; 0.48629745841
-0.5349856333333334; 0.486494332552
-0.5349173666666667; 0.486559957266
-0.5348491; 0.486691236496
-0.5347808333333334; 0.486822485924
-0.5347125666666667; 0.486986547709
-0.5346443; 0.487117797136
-0.5345760333333334; 0.48718342185
-0.5345077666666667; 0.487380295992
-0.5344395; 0.487511575222
-0.5343712333333334; 0.48764282465
-0.5343029666666667; 0.487774074078
-0.5342347; 0.487938135862
-0.5341664333333334; 0.488003760576
-0.5340981666666667; 0.488167822361
-0.5340298999999999; 0.488299101591
-0.5339616333333334; 0.488463163376
-0.5338933666666666; 0.488627225161
-0.5338251000000001; 0.488692849874
-0.5337568333333333; 0.488824099302
-0.5336885666666666; 0.488988161087
-0.5336203; 0.489152252674
-0.5335520333333333; 0.489283502102
-0.5334837666666666; 0.489381939173
-0.5334155; 0.489546000957
-0.5333472333333333; 0.489677250385
-0.5332789666666666; 0.489874154329
-0.5332107; 0.489906966686
-0.5331424333333333; 0.490005403757
-0.5330741666666666; 0.490202277899
-0.5330059; 0.490267902613
-0.5329376333333333; 0.490464776754
-0.5328693666666666; 0.490530401468
-0.5328011; 0.490661680698
-0.5327328333333333; 0.490760117769
-0.5326645666666666; 0.490924179554
-0.5325963; 0.491022616625
-0.5325280333333333; 0.491219490767
-0.5324597666666667; 0.491350740194
-0.5323915; 0.491482019424
-0.5323232333333333; 0.491514831781
-0.5322549666666667; 0.491711705923
-0.5321867; 0.491842955351
-0.5321184333333333; 0.492007017136
-0.5320501666666667; 0.492105454206
-0.5319819; 0.49220392108
-0.5319136333333333; 0.492269545794
-0.5318453666666667; 0.492499232292
-0.5317771; 0.49263048172
-0.5317088333333333; 0.492761731148
-0.5316405666666667; 0.492860168219
-0.5315723; 0.492892980576
-0.5315040333333333; 0.493057072163
-0.5314357666666667; 0.493155509233
-0.5313675; 0.493286758661
-0.5312992333333333; 0.493385195732
-0.5312309666666667; 0.49351644516
-0.5311627; 0.493713319302
-0.5310944333333334; 0.493811786175
-0.5310261666666667; 0.49397584796
-0.5309579; 0.49407428503
-0.5308896333333334; 0.494205534458
-0.5308213666666667; 0.494369596243
-0.5307531; 0.4944024086
-0.5306848333333334; 0.494500845671
-0.5306165666666667; 0.494697749615
-0.5305483; 0.494828999043
-0.5304800333333334; 0.49496024847
-0.5304117666666667; 0.495058685541
-0.5303435; 0.495124310255
-0.5302752333333334; 0.49528837204
-0.5302069666666667; 0.495452463627
-0.5301387; 0.495583713055
-0.5300704333333334; 0.495682150126
-0.5300021666666667; 0.49584621191
-0.5299339; 0.495879024267
-0.5298656333333334; 0.495977461338
-0.5297973666666667; 0.496141552925
-0.5297291; 0.496272802353
-0.5296608333333334; 0.49630561471
-0.5295925666666667; 0.496469676495
-0.5295243000000001; 0.496502488852
-0.5294560333333334; 0.496666550636
-0.5293877666666666; 0.49673217535
-0.5293195000000001; 0.496896237135
-0.5292512333333333; 0.497027516365
-0.5291829666666666; 0.497158765793
-0.5291147; 0.497224390507
-0.5290464333333333; 0.497290015221
-0.5289781666666666; 0.497454077005
-0.5289099; 0.497552514076
-0.5288416333333333; 0.497650951147
-0.5287733666666666; 0.497683763504
-0.5287051; 0.497880667448
-0.5286368333333333; 0.497946292162
-0.5285685666666666; 0.498044729233
-0.5285003; 0.498143166304
-0.5284320333333333; 0.498208791018
-0.5283637666666666; 0.498405665159
-0.5282955; 0.498405665159
-0.5282272333333333; 0.498569756746
-0.5281589666666666; 0.498668193817
-0.5280907; 0.498799443245
-0.5280224333333333; 0.498832255602
-0.5279541666666667; 0.498996317387
-0.5278859; 0.499160379171
-0.5278176333333333; 0.499258816242
-0.5277493666666667; 0.499357283115
-0.5276811; 0.499488532543
-0.5276128333333333; 0.499586969614
-0.5275445666666667; 0.499783843756
-0.5274763; 0.499915093184
-0.5274080333333333; 0.500013530254
-0.5273397666666667; 0.500046372414
-0.5272715; 0.500144779682
-0.5272032333333333; 0.50027602911
-0.5271349666666667; 0.500374495983
-0.5270667; 0.50053858757
-0.5269984333333333; 0.500604212284
-0.5269301666666667; 0.500702619553
-0.5268619; 0.500735461712
-0.5267936333333333; 0.500965118408
-0.5267253666666667; 0.500932335854
-0.5266571; 0.501096367836
-0.5265888333333333; 0.501227617264
-0.5265205666666667; 0.501358926296
-0.5264523; 0.501391708851
-0.5263840333333334; 0.501588582993
-0.5263157666666667; 0.50171983242
-0.5262475; 0.50171983242
-0.5261792333333334; 0.501916706562
-0.5261109666666667; 0.501916706562
-0.5260427; 0.502113640308
-0.5259744333333334; 0.502146422863
-0.5259061666666667; 0.502212047577
-0.5258379; 0.502343297005
-0.5257696333333334; 0.502474546432
-0.5257013666666667; 0.502507388592
-0.5256331; 0.502671420574
-0.5255648333333334; 0.502704262733
-0.5254965666666667; 0.502802670002
-0.5254283; 0.502966761589
-0.5253600333333334; 0.503065228462
-0.5252917666666667; 0.503098011017
-0.5252235; 0.50319647789
-0.5251552333333334; 0.503393352032
-0.5250869666666667; 0.503393352032
-0.5250186999999999; 0.503590226173
-0.5249504333333334; 0.503623068333
-0.5248821666666666; 0.503688693047
-0.5248139000000001; 0.503852725029
-0.5247456333333334; 0.503951191902
-0.5246773666666666; 0.504016816616
-0.5246091000000001; 0.504115223885
-0.5245408333333333; 0.504180848598
-0.5244725666666666; 0.504344940186
-0.5244043; 0.50437772274
-0.5243360333333333; 0.504509031773
-0.5242677666666666; 0.504607439041
-0.5241995; 0.504673063755
-0.5241312333333333; 0.504837155342
-0.5240629666666666; 0.504935562611
-0.5239947; 0.505066812038
-0.5239264333333333; 0.505132436752
-0.5238581666666666; 0.505263745785
-0.5237899; 0.505329370499
-0.5237216333333333; 0.505493402481
-0.5236533666666666; 0.505559027195
-0.5235851; 0.505690276623
-0.5235168333333333; 0.505788743496
-0.5234485666666666; 0.505821526051
-0.5233803; 0.505919992924
-0.5233120333333333; 0.506051242352
-0.5232437666666667; 0.506149709225
-0.5231755; 0.506248116493
-0.5231072333333333; 0.506313741207
-0.5230389666666667; 0.506444990635
-0.5229707; 0.506609082222
-0.5229024333333333; 0.506609082222
-0.5228341666666667; 0.506805956364
-0.5227659; 0.506871581078
-0.5226976333333333; 0.506970047951
-0.5226293666666667; 0.507035672665
-0.5225611; 0.507068455219
-0.5224928333333333; 0.507232546806
-0.5224245666666667; 0.507265329361
-0.5223563; 0.507429420948
-0.5222880333333333; 0.507429420948
-0.5222197666666667; 0.507527828217
-0.5221515; 0.507691919804
-0.5220832333333333; 0.507790386677
-0.5220149666666667; 0.507888793945
-0.5219467; 0.507921636105
-0.5218784333333333; 0.508052885532
-0.5218101666666667; 0.508151292801
-0.5217419; 0.508249759674
-0.5216736333333334; 0.508348166943
-0.5216053666666667; 0.508413851261
-0.5215371; 0.508479475975
-0.5214688333333334; 0.508610725403
-0.5214005666666667; 0.508709132671
-0.5213323; 0.508741974831
-0.5212640333333334; 0.508906006813
-0.5211957666666667; 0.508938848972
-0.5211275; 0.5090700984
-0.5210592333333334; 0.509201347828
-0.5209909666666667; 0.509299814701
-0.5209227; 0.509365439415
-0.5208544333333334; 0.50939822197
-0.5207861666666667; 0.509529471397
-0.5207179; 0.509693562984
-0.5206496333333334; 0.509759187698
-0.5205813666666667; 0.509857594967
-0.5205131; 0.50995606184
-0.5204448333333334; 0.509988903999
-0.5203765666666667; 0.510087311268
-0.5203082999999999; 0.510120153427
-0.5202400333333334; 0.51028418541
-0.5201717666666666; 0.510349810123
-0.5201035000000001; 0.510415434837
-0.5200352333333333; 0.510513901711
-0.5199669666666666; 0.510645151138
-0.5198987; 0.510677933693
-0.5198304333333333; 0.51084202528
-0.5197621666666666; 0.510809242725
-0.5196939; 0.510973274708
-0.5196256333333333; 0.511104524136
-0.5195573666666666; 0.511104524136
-0.5194891; 0.511202991009
-0.5194208333333333; 0.511301398277
-0.5193525666666666; 0.511367022991
-0.5192843; 0.511432647705
-0.5192160333333333; 0.511563956738
-0.5191477666666666; 0.511629581451
-0.5190795; 0.511662364006
-0.5190112333333333; 0.511826455593
-0.5189429666666667; 0.511892080307
-0.5188747; 0.511990487576
-0.5188064333333333; 0.512056112289
-0.5187381666666666; 0.512154579163
-0.5186699; 0.512252986431
-0.5186016333333333; 0.512351453304
-0.5185333666666667; 0.512449920177
-0.5184651; 0.512581169605
-0.5183968333333333; 0.51261395216
-0.5183285666666667; 0.512679576874
-0.5182603; 0.512745201588
-0.5181920333333333; 0.512974917889
-0.5181237666666667; 0.512942075729
-0.5180555; 0.513106167316
-0.5179872333333333; 0.51320463419
-0.5179189666666667; 0.513237416744
-0.5178507; 0.513368666172
-0.5177824333333333; 0.513467133045
-0.5177141666666667; 0.513532757759
-0.5176459; 0.513565540314
-0.5175776333333333; 0.513664007187
-0.5175093666666667; 0.513762414455
-0.5174411; 0.513860881329
-0.5173728333333334; 0.513860881329
-0.5173045666666667; 0.514123380184
-0.5172363; 0.514156222343
-0.5171680333333334; 0.514254629612
-0.5170997666666667; 0.514353096485
-0.5170315; 0.51438587904
-0.5169632333333334; 0.514418721199
-0.5168949666666667; 0.514549970627
-0.5168267; 0.514615595341
-0.5167584333333334; 0.514681220055
-0.5166901666666667; 0.514812469482
-0.5166219; 0.514878094196
-0.5165536333333334; 0.515009343624
-0.5164853666666667; 0.515042185783
-0.5164171; 0.515107810497
-0.5163488333333334; 0.515140593052
-0.5162805666666667; 0.515304684639
-0.5162123; 0.515337467194
-0.5161440333333334; 0.515435934067
-0.5160757666666667; 0.51553440094
-0.5160075; 0.515567183495
-0.5159392333333334; 0.515698432922
-0.5158709666666667; 0.515796899796
-0.5158027000000001; 0.515895307064
-0.5157344333333334; 0.515960931778
-0.5156661666666666; 0.515993773937
-0.5155979000000001; 0.516125023365
-0.5155296333333333; 0.516256272793
-0.5154613666666666; 0.516289114952
-0.5153931; 0.51642036438
-0.5153248333333333; 0.516485989094
-0.5152565666666666; 0.516617238522
-0.5151883; 0.51671564579
-0.5151200333333333; 0.516814112663
-0.5150517666666666; 0.516846895218
-0.5149835; 0.516912519932
-0.5149152333333333; 0.51704376936
-0.5148469666666666; 0.51704376936
-0.5147787; 0.517207860947
-0.5147104333333333; 0.517240703106
-0.5146421666666666; 0.517339110374
-0.5145739; 0.517470359802
-0.5145056333333333; 0.517503201962
-0.5144373666666666; 0.517568826675
-0.5143691; 0.517667233944
-0.5143008333333333; 0.517732858658
-0.5142325666666667; 0.517831325531
-0.5141643; 0.517929792404
-0.5140960333333333; 0.517962574959
-0.5140277666666667; 0.518093824387
-0.5139595; 0.518093824387
-0.5138912333333333; 0.518225073814
-0.5138229666666667; 0.518290698528
-0.5137547; 0.518323540688
-0.5136864333333333; 0.518454790115
-0.5136181666666667; 0.518553197384
-0.5135499; 0.518684506416
-0.5134816333333333; 0.518684506416
-0.5134133666666667; 0.518782913685
-0.5133451; 0.518947005272
-0.5132768333333333; 0.519012629986
-0.5132085666666667; 0.5190782547
-0.5131403; 0.519209504128
-0.5130720333333333; 0.519209504128
-0.5130037666666667; 0.519340753555
-0.5129355; 0.519406378269
-0.5128672333333333; 0.519537627697
-0.5127989666666667; 0.519570469856
-0.5127307; 0.519603252411
-0.5126624333333334; 0.519734501839
-0.5125941666666667; 0.519800126553
-0.5125259; 0.51993137598
-0.5124576333333334; 0.51996421814
-0.5123893666666667; 0.520095467567
-0.5123211; 0.520161092281
-0.5122528333333334; 0.520259559155
-0.5121845666666667; 0.520357966423
-0.5121163; 0.520390808582
-0.5120480333333334; 0.52052205801
-0.5119797666666667; 0.520620465279
-0.5119115; 0.520686089993
-0.5118432333333334; 0.520718932152
-0.5117749666666667; 0.52081733942
-0.5117067; 0.52085018158
-0.5116384333333334; 0.521047055721
-0.5115701666666667; 0.521079897881
-0.5115019; 0.521145522594
-0.5114336333333334; 0.521211147308
-0.5113653666666667; 0.521342396736
-0.5112970999999999; 0.52140802145
-0.5112288333333334; 0.521440804005
-0.5111605666666666; 0.521539270878
-0.5110923000000001; 0.521604895592
-0.5110240333333333; 0.52170330286
-0.5109557666666666; 0.521834611893
-0.5108875; 0.521834611893
-0.5108192333333333; 0.521933019161
-0.5107509666666666; 0.522031486034
-0.5106827; 0.522064268589
-0.5106144333333333; 0.522162735462
-0.5105461666666666; 0.522228360176
-0.5104779; 0.522326767445
-0.5104096333333333; 0.522392392159
-0.5103413666666666; 0.522425234318
-0.5102731; 0.522523641586
-0.5102048333333333; 0.522556483746
-0.5101365666666666; 0.522720575333
-0.5100683; 0.522753357887
-0.5100000333333333; 0.522884607315
-0.5099317666666666; 0.522917449474
-0.5098635; 0.523015856743
-0.5097952333333333; 0.523081481457
-0.5097269666666666; 0.52317994833
-0.5096587; 0.523278355598
-0.5095904333333333; 0.523343980312
-0.5095221666666667; 0.523442447186
-0.5094539; 0.523508071899
-0.5093856333333333; 0.523606538773
-0.5093173666666667; 0.523672163486
-0.5092491; 0.523770570755
-0.5091808333333333; 0.523869037628
-0.5091125666666667; 0.523901820183
-0.5090443; 0.524000287056
-0.5089760333333333; 0.52406591177
-0.5089077666666667; 0.524131536484
-0.5088395; 0.524230003357
-0.5087712333333333; 0.524262785912
-0.5087029666666667; 0.524361252785
-0.5086347; 0.524394035339
-0.5085664333333333; 0.524492502213
-0.5084981666666667; 0.524590909481
-0.5084299; 0.524656534195
-0.5083616333333333; 0.524722158909
-0.5082933666666667; 0.524755001068
-0.5082251; 0.524886250496
-0.5081568333333333; 0.524984717369
-0.5080885666666667; 0.525050342083
-0.5080203; 0.525083124638
-0.5079520333333334; 0.525181591511
-0.5078837666666667; 0.525279998779
-0.5078155; 0.525312840939
-0.5077472333333334; 0.525378465652
-0.5076789666666667; 0.525444090366
-0.5076107; 0.52550971508
-0.5075424333333334; 0.525608122349
-0.5074741666666667; 0.525706589222
-0.5074059; 0.525805056095
-0.5073376333333334; 0.525903463364
-0.5072693666666667; 0.525969088078
-0.5072011; 0.526100337505
-0.5071328333333334; 0.526133179665
-0.5070645666666667; 0.526165962219
-0.5069963; 0.526330053806
-0.5069280333333334; 0.526330053806
-0.5068597666666667; 0.52639567852
-0.5067915000000001; 0.526494085789
-0.5067232333333334; 0.526559770107
-0.5066549666666667; 0.526691019535
-0.5065866999999999; 0.526756644249
-0.5065184333333334; 0.526822268963
-0.5064501666666666; 0.526887893677
-0.5063819000000001; 0.526953518391
-0.5063136333333333; 0.527051925659
-0.5062453666666666; 0.527117550373
-0.5061771; 0.527216017246
-0.5061088333333333; 0.527314424515
-0.5060405666666666; 0.527412891388
-0.5059723; 0.527511358261
-0.5059040333333333; 0.527576982975
-0.5058357666666666; 0.52760976553
-0.5057675; 0.527675390244
-0.5056992333333333; 0.527773857117
-0.5056309666666666; 0.527741014957
-0.5055627; 0.527937889099
-0.5054944333333333; 0.528036355972
-0.5054261666666666; 0.528069138527
-0.5053579; 0.528200447559
-0.5052896333333333; 0.528266072273
-0.5052213666666667; 0.528298854828
-0.5051531; 0.528397321701
-0.5050848333333333; 0.528430104256
-0.5050165666666666; 0.52849572897
-0.5049483; 0.528561353683
-0.5048800333333333; 0.528659820557
-0.5048117666666667; 0.528758227825
-0.5047435; 0.528823852539
-0.5046752333333333; 0.528889477253
-0.5046069666666667; 0.528987944126
-0.5045387; 0.529020786285
-0.5044704333333333; 0.529152035713
-0.5044021666666667; 0.529250442982
-0.5043339; 0.529316067696
-0.5042656333333333; 0.52938169241
-0.5041973666666667; 0.529447317123
-0.5041291; 0.529578566551
-0.5040608333333333; 0.529677033424
-0.5039925666666667; 0.529677033424
-0.5039243; 0.529808282852
-0.5038560333333333; 0.529841125011
-0.5037877666666667; 0.52993953228
-0.5037195; 0.530005156994
-0.5036512333333334; 0.530070781708
-0.5035829666666667; 0.530136406422
-0.5035147; 0.530202031136
-0.5034464333333334; 0.530300498009
-0.5033781666666667; 0.530398905277
-0.5033099; 0.53049737215
-0.5032416333333334; 0.53053021431
-0.5031733666666667; 0.530595839024
-0.5031051; 0.530661463737
-0.5030368333333334; 0.530759871006
-0.5029685666666667; 0.530792713165
-0.5029003; 0.530923962593
-0.5028320333333334; 0.530956745148
-0.5027637666666667; 0.531055212021
-0.5026955; 0.531120836735
-0.5026272333333334; 0.531186461449
-0.5025589666666667; 0.531186461449
-0.5024907; 0.531219244003
-0.5024224333333334; 0.53138333559
-0.5023541666666667; 0.531448960304
-0.5022859; 0.531547427177
-0.5022176333333334; 0.531580209732
-0.5021493666666667; 0.531645834446
-0.5020811000000001; 0.531678676605
-0.5020128333333334; 0.531809926033
-0.5019445666666666; 0.531842708588
-0.5018763000000001; 0.531941175461
-0.5018080333333333; 0.531973958015
-0.5017397666666666; 0.532105267048
-0.5016715; 0.532105267048
-0.5016032333333333; 0.532236516476
-0.5015349666666666; 0.532334923744
-0.5014667; 0.532367765903
-0.5013984333333333; 0.532466173172
-0.5013301666666666; 0.532630264759
-0.5012619; 0.532663047314
-0.5011936333333333; 0.532695889473
-0.5011253666666666; 0.532892763615
-0.5010571; 0.532892763615
-0.5009888333333333; 0.532958388329
-0.5009205666666666; 0.533024013042
-0.5008523; 0.533122479916
-0.5007840333333333; 0.53318810463
-0.5007157666666666; 0.533319354057
-0.5006475; 0.533352136612
-0.5005792333333333; 0.533450603485
-0.5005109666666667; 0.533549010754
-0.5004427; 0.533614635468
-0.5003744333333333; 0.533713102341
-0.5003061666666667; 0.533713102341
-0.5002379; 0.533516228199
-0.5001696333333333; 0.532006800175
-0.5001013666666667; 0.525542497635
-0.5000331; 0.509299814701
-0.4999648333333334; 0.480555087328
-0.4998965666666667; 0.443836659193
-0.4998283; 0.431072175503
-0.4997600333333334; 0.425920456648
-0.4996917666666666; 0.424214154482
-0.4996235; 0.42434540391
-0.4995552333333333; 0.424739152193
-0.4994869666666667; 0.425100117922
-0.4994187; 0.42532980442
-0.4993504333333333; 0.42565792799
-0.4992821666666667; 0.425854831934
-0.4992139; 0.425986081362
-0.4991456333333333; 0.42611733079
-0.4990773666666667; 0.426314204931
-0.4990091; 0.426445454359
-0.4989408333333333; 0.426609545946
-0.4988725666666667; 0.426707983017
-0.4988043; 0.426806420088
-0.4987360333333333; 0.42700329423
-0.4986677666666667; 0.4271017313
-0.4985995; 0.427167356014
-0.4985312333333333; 0.427265793085
-0.4984629666666667; 0.427364259958
-0.4983947; 0.427462697029
-0.4983264333333333; 0.427593946457
-0.4982581666666667; 0.427692383528
-0.4981899; 0.427790820599
-0.4981216333333333; 0.427856445313
-0.4980533666666667; 0.427954882383
-0.4979851; 0.428086131811
-0.4979168333333334; 0.428217411041
-0.4978485666666667; 0.428217411041
-0.4977803; 0.428348660469
-0.4977120333333334; 0.428414285183
-0.4976437666666667; 0.428512722254
-0.4975755; 0.428643971682
-0.4975072333333334; 0.428676784039
-0.4974389666666666; 0.428808033466
-0.4973707; 0.42887365818
-0.4973024333333333; 0.428939312696
-0.4972341666666666; 0.429037749767
-0.4971659; 0.429136186838
-0.4970976333333333; 0.429267436266
-0.4970293666666666; 0.42933306098
-0.4969611; 0.429398685694
-0.4968928333333333; 0.429497122765
-0.4968245666666667; 0.429595559835
-0.4967563; 0.429661184549
-0.4966880333333333; 0.429726839066
-0.4966197666666667; 0.429825276136
-0.4965515; 0.42989090085
-0.4964832333333333; 0.430022150278
-0.4964149666666667; 0.430022150278
-0.4963467; 0.430120587349
-0.4962784333333333; 0.430251836777
-0.4962101666666667; 0.430284649134
-0.4961419; 0.430415898561
-0.4960736333333333; 0.430448710918
-0.4960053666666667; 0.430547177792
-0.4959371; 0.430678427219
-0.4958688333333333; 0.430711239576
-0.4958005666666667; 0.430842489004
-0.4957323; 0.430940926075
-0.4956640333333333; 0.431006550789
